red,ir
115965.9,105722.9
115834.4,105746.7
115741.5,105786.0
115707.2,105848.1
115675.6,105893.5
115626.1,105910.6
115573.2,105904.0
115436.8,105861.3
115259.9,105808.8
114993.0,105709.4
114637.7,105617.6
114122.3,105506.3
110759.1,107798.7
110864.7,107809.6
110713.4,107715.9
110561.4,107624.4
110488.5,107571.9
110483.4,107562.5
110231.9,107444.3
110043.7,107361.2
110025.5,107352.5
110026.5,107348.6
109976.2,107330.3
110040.5,107348.0
113649.1,99838.6
113705.9,99876.5
113656.4,99884.2
113655.1,99906.5
113435.9,99773.6
113091.0,99584.4
112891.2,99514.4
112843.8,99471.8
113149.8,99645.1
113038.3,99624.8
112881.9,99576.4
112266.6,99264.9
96968.4,84487.5
96864.2,84415.1
97662.8,84732.4
96816.8,84443.1
96116.9,84110.7
96370.4,84188.4
96470.9,84208.5
96742.8,84293.1
96724.9,84303.2
96739.1,84292.1
96308.5,84132.0
96550.5,84295.0
89607.7,77270.7
89640.6,77245.7
89293.0,77094.6
89291.5,77113.4
89751.3,77379.8
89858.1,77383.5
89563.9,77149.3
89810.9,77362.4
90041.9,77481.2
89501.8,77152.4
89398.3,77151.3
89630.7,77298.6
76831.4,74286.5
77218.0,74583.4
77736.9,74916.8
77998.8,75094.4
78298.3,75268.2
78543.8,75441.7
78586.3,75496.8
78202.3,75316.2
78212.1,75358.4
78360.9,75452.6
78189.3,75389.8
78160.6,75426.1
98297.2,88798.0
98028.3,88668.5
98172.2,88712.5
98275.0,88714.3
97961.4,88593.1
98277.6,88745.5
97764.1,88463.0
97873.1,88561.7
98007.1,88610.9
97960.8,88584.1
98316.3,88749.6
97224.4,88264.3
90455.1,74222.4
90276.3,74141.4
90158.9,74112.8
90439.5,74181.2
90983.6,74389.9
90801.7,74307.7
90549.0,74249.9
90970.9,74414.7
91595.2,74661.4
91808.2,74688.7
91759.3,74668.7
92071.5,74782.4
92849.7,91341.7
92751.4,91326.2
92672.1,91316.3
92165.3,91100.4
92355.3,91232.9
91634.5,90903.4
91229.0,90725.7
91497.7,90888.7
91255.9,90789.3
91032.1,90688.8
92009.5,91179.8
92236.7,91301.1
89616.4,88105.3
89524.0,88130.5
89593.6,88210.8
89796.1,88236.1
90081.8,88444.5
89670.1,88229.7
89464.7,88091.2
89415.5,88049.5
89702.7,88197.5
89637.3,88141.9
89383.6,88010.2
89074.2,87858.2
105510.3,94313.1
105413.8,94208.7
105048.5,93991.5
104760.2,93828.9
105154.3,94091.8
104926.0,93898.4
104643.6,93702.7
104563.5,93657.3
104877.2,93830.2
105042.7,93930.3
104979.5,93857.0
105142.2,93929.8
80641.4,72562.4
80505.5,72510.9
80288.9,72543.0
80314.3,72591.2
80576.0,72619.4
80800.7,72665.9
80958.1,72664.6
80891.9,72640.1
80857.2,72574.1
80569.0,72486.8
80198.9,72377.2
80022.4,72397.2
99021.5,89554.5
98697.0,89405.8
97900.7,89040.8
98422.6,89243.9
98147.0,89133.6
98080.5,88995.1
97596.2,88738.7
97114.4,88542.6
97279.0,88621.7
97029.1,88518.6
96842.3,88455.9
96725.2,88378.4
86419.1,77964.3
86091.0,77811.9
85965.2,77727.4
85959.2,77770.9
86137.1,77852.9
85569.6,77579.6
85692.3,77619.8
85125.2,77304.2
85155.0,77314.4
85026.1,77218.9
85148.5,77297.8
85174.4,77298.3
97666.2,71884.1
97157.5,71543.7
97205.9,71572.8
97286.3,71613.2
97181.4,71530.0
97372.6,71627.9
97349.5,71605.4
97176.3,71490.6
97039.2,71404.1
97055.8,71402.0
97063.0,71399.1
96778.0,71214.3
97255.1,87962.2
96984.0,87831.7
96947.2,87802.6
96872.7,87768.3
96923.7,87783.8
96741.1,87675.6
96611.6,87601.0
96754.9,87671.6
96834.0,87712.0
96888.7,87719.6
96959.1,87719.3
97261.8,87854.6
101023.0,91913.0
100683.7,91712.7
100557.3,91681.8
100503.5,91703.1
100254.5,91580.5
100360.6,91656.9
100464.3,91729.8
100615.4,91835.4
100503.6,91759.1
100617.2,91834.8
100493.1,91770.9
100372.3,91703.1
113148.7,94973.9
113172.6,94923.2
112176.4,94122.5
111961.7,93884.7
111922.4,93787.2
111794.5,93637.9
112205.1,93909.7
112031.5,93721.3
111999.8,93659.5
112014.7,93634.1
112343.3,93829.3
112060.0,93549.6
81111.0,62727.8
81208.8,62777.5
81332.8,62830.5
81628.1,62924.3
81785.0,62958.0
81806.7,62974.3
81818.0,62959.6
81771.3,62944.3
81846.9,62968.3
82188.7,63082.1
82335.8,63092.7
82182.3,63039.7
107015.0,99779.1
107055.3,99792.8
106965.6,99755.7
106786.1,99673.5
106811.3,99692.3
107235.8,99832.5
107560.4,99920.5
107429.5,99851.2
107449.4,99901.2
107624.6,100043.3
108055.3,100250.4
108407.4,100408.1
83600.3,75056.3
83818.0,75204.6
84333.9,75460.4
84286.2,75458.1
84228.6,75444.4
84044.8,75350.8
83887.9,75286.1
83335.2,75052.8
82492.7,74699.2
81991.3,74498.3
81869.1,74365.1
81651.6,74262.6
102834.5,90099.4
102010.8,89781.7
101267.7,89515.9
101083.8,89510.8
101190.2,89602.8
101486.9,89751.3
101671.7,89846.0
101753.9,89884.3
101728.4,89869.0
101622.3,89811.5
102344.8,90169.4
103092.4,90536.9
96079.2,88225.9
96186.4,88305.6
95729.7,88100.7
96110.4,88330.7
96488.3,88505.9
96708.9,88644.8
96682.8,88643.8
96989.7,88825.6
97261.0,88921.9
97121.7,88854.8
96753.9,88656.4
95665.6,88161.3
95568.5,88236.2
95667.8,88253.8
95640.0,88221.1
95280.9,88033.9
95076.8,87914.4
95149.4,87936.9
95190.3,87952.9
95159.1,87965.1
95312.4,87999.4
95617.2,88088.9
95636.1,88070.9
95528.7,87943.9
120976.0,100972.9
121116.0,100978.7
121205.2,100984.3
121120.3,100928.8
121245.6,100942.3
121266.4,100903.6
121180.7,100851.3
121300.5,100875.9
121525.9,100889.9
121542.2,100854.2
121626.7,100842.9
121663.5,100835.8
116678.4,91254.1
116322.0,91095.9
115611.1,90870.4
115228.0,90706.5
114550.6,90518.7
114483.5,90496.5
114243.9,90392.6
113759.2,90252.7
114295.5,90420.7
114415.2,90370.5
114066.1,90241.1
114101.3,90256.2
86988.4,71318.3
87233.9,71573.0
87322.4,71638.5
86889.9,71389.0
87131.9,71540.5
87890.6,71941.3
88525.8,72281.3
88900.0,72503.4
89060.2,72590.1
89461.8,72790.9
89528.1,72813.5
89224.2,72733.9
115226.1,109691.6
115261.1,109661.5
115192.4,109609.3
114939.0,109494.8
114807.8,109419.9
114878.0,109455.1
115147.2,109579.5
114914.0,109471.5
114760.1,109370.3
114851.4,109408.7
115247.4,109625.1
115121.2,109507.3
104487.2,92308.5
104921.6,92451.1
103446.4,91836.7
104080.2,92135.4
102943.8,91703.8
103706.1,92039.1
102579.4,91612.1
104018.5,92165.7
102428.4,91485.6
103560.6,91922.4
102280.9,91365.1
102742.3,91549.6
108537.6,93245.7
108256.5,93175.6
107910.6,93109.9
107563.0,93048.5
107465.9,93109.5
107654.7,93235.3
107642.2,93285.5
107353.7,93243.5
106990.7,93182.8
106855.9,93186.3
106973.2,93296.9
106845.8,93291.9
103457.1,97140.6
103371.6,97091.4
103375.3,97115.5
103320.8,97096.2
103315.7,97090.4
103842.9,97337.6
104052.3,97427.3
103736.0,97284.7
103862.1,97345.4
103786.8,97283.8
103639.8,97215.3
103318.0,97043.3
112512.3,114338.7
112601.6,114348.7
112669.2,114392.9
112374.8,114265.3
112244.2,114262.6
112198.1,114276.6
112218.6,114311.4
112020.2,114332.1
112182.2,114425.7
112528.1,114595.2
112855.8,114730.2
112782.9,114727.7
117010.8,112541.6
116925.1,112395.8
116823.0,112306.0
116876.9,112263.8
116931.9,112286.0
116816.5,112222.2
116569.2,112133.6
116415.8,112037.5
116398.0,111968.0
116157.2,111914.7
115930.6,111802.7
115597.6,111675.1
128771.8,114207.4
128789.6,114225.2
128745.9,114199.2
128684.0,114158.7
128637.8,114158.8
128538.3,114138.6
128532.6,114219.7
128501.4,114285.5
128392.3,114267.3
128350.0,114331.5
128388.6,114447.1
128387.8,114513.7
95527.8,76735.2
95530.7,76762.7
95509.5,76778.2
95464.9,76787.7
95336.8,76755.9
95220.2,76709.8
95100.1,76664.0
95031.5,76624.6
95100.9,76680.3
95191.2,76704.6
95084.2,76669.8
95226.9,76777.2
119186.7,92481.9
119139.8,92458.8
119066.3,92417.3
119053.2,92400.7
119122.4,92432.0
119094.6,92404.8
119066.1,92397.5
119040.4,92372.8
119094.0,92363.9
119172.1,92376.2
119196.7,92369.3
119189.1,92402.5
120210.9,108914.0
120365.3,108952.1
120299.8,108903.1
120287.4,108882.3
120321.5,108871.6
120346.6,108878.2
120527.2,108912.5
120426.4,108852.0
120350.2,108819.6
120396.8,108799.6
120329.0,108765.1
120233.9,108684.3
95809.5,66914.5
95427.1,66683.5
94908.7,66439.3
94653.8,66348.3
94548.3,66292.8
94019.3,66090.7
93673.6,65956.9
93653.8,65945.9
93900.8,66055.5
94219.1,66190.3
94407.4,66254.2
94252.3,66191.8
102754.6,86868.5
102489.2,86718.5
102154.2,86515.3
101881.8,86370.8
101663.3,86270.8
101586.6,86251.9
101529.9,86248.6
101587.7,86307.9
101674.4,86372.7
101550.9,86338.6
101534.4,86375.0
101479.5,86398.5
98616.6,92557.3
98427.0,92400.9
98644.8,92481.3
98514.0,92425.3
98910.4,92591.6
99436.6,92743.0
99963.9,92916.3
100401.1,93074.3
100701.5,93187.5
100841.4,93184.7
101035.1,93279.6
101204.1,93376.8
108137.5,84260.2
107483.2,83953.0
106460.1,83517.3
106198.4,83352.0
106192.5,83305.1
106473.0,83338.6
106320.2,83233.5
106421.3,83240.8
106687.1,83318.5
106518.5,83239.3
106377.7,83172.4
106110.5,83056.0
133137.6,110400.8
133105.5,110323.3
133086.8,110227.8
132989.1,110130.0
132713.5,109951.2
132607.7,109829.7
132384.3,109717.0
132237.5,109636.8
132165.9,109587.8
132012.4,109513.6
131908.5,109449.4
132217.8,109543.5
120631.5,105534.1
120504.7,105359.5
120409.4,105200.6
120361.0,105046.8
120326.3,104929.9
120253.8,104799.9
120244.9,104703.3
120175.6,104591.9
119959.0,104410.9
119745.1,104277.2
119277.0,104092.7
118760.9,104082.8
115656.9,103649.9
115660.9,103678.4
115653.5,103665.4
115592.5,103609.1
115804.9,103799.7
115926.4,103878.9
115989.9,103880.0
115889.4,103801.1
115848.1,103742.6
115966.1,103812.3
116173.3,103997.1
116168.6,103990.7
94578.3,84830.2
94252.9,84571.2
94112.9,84477.8
94634.9,84855.8
94341.4,84610.7
93895.7,84280.9
94058.3,84440.7
94328.6,84615.3
93902.4,84317.0
93673.5,84198.6
94061.1,84437.4
93797.3,84212.1
90210.1,81680.2
90431.6,81791.2
90376.1,81763.1
90234.8,81764.0
90017.3,81720.3
89757.2,81748.3
90316.8,82079.8
89973.2,81969.8
90292.2,82123.9
90362.1,82122.7
91123.7,82521.6
91163.7,82521.3
83928.7,78090.1
83837.5,78002.8
83745.4,77935.0
83746.3,77885.9
83857.8,77918.4
83541.5,77761.0
83050.7,77532.6
82705.4,77343.9
82539.9,77264.7
83129.7,77523.0
82992.8,77452.3
82646.8,77257.9
115790.7,102773.1
115543.2,102602.5
115328.3,102449.3
115289.3,102363.6
115403.7,102347.6
115457.1,102312.6
115323.5,102190.6
115080.8,102021.6
114888.4,101875.5
114898.6,101840.9
115049.5,101878.8
114996.8,101857.6
102274.5,67874.9
102377.3,67902.1
102614.7,67969.7
102862.3,68043.8
102803.0,68017.9
102768.3,68016.0
102554.1,67952.4
102338.9,67901.4
102438.7,67929.0
102593.2,67964.8
102808.7,68027.9
102847.6,68050.8
100003.6,73055.4
100214.6,73117.5
100210.9,73077.5
100136.2,73000.9
100056.2,72921.4
99772.5,72789.1
99524.7,72707.0
99458.3,72695.7
99543.4,72749.8
99452.6,72747.2
99206.5,72679.0
99382.4,72751.7
90089.8,75139.1
90309.1,75160.9
89968.6,75041.3
91614.6,75642.1
91384.3,75541.8
90734.3,75307.3
90360.6,75183.4
90412.9,75281.6
90533.5,75355.7
90595.1,75423.3
90947.6,75566.4
90674.1,75447.5
94849.7,89464.4
94921.3,89545.0
95080.5,89659.8
95156.0,89701.6
95038.3,89673.3
94860.3,89600.6
95002.3,89674.5
94927.7,89591.9
94866.5,89546.7
94918.2,89583.6
94523.6,89408.4
93958.7,89166.4
103726.6,75873.3
103653.0,75836.2
103652.9,75833.4
103663.4,75841.9
103626.4,75820.3
103645.6,75821.5
103639.7,75819.4
103646.7,75822.8
103697.2,75834.3
103704.1,75834.9
103710.5,75831.3
103708.0,75822.7
104051.8,104871.7
103932.2,104793.2
104288.7,104968.8
104676.3,105157.1
104717.2,105129.2
104702.9,105100.7
104676.2,105102.1
104476.4,104959.8
104401.5,104891.0
103579.7,104391.4
103385.9,104261.1
103496.8,104202.4
112283.9,86076.8
112274.1,86080.4
112321.5,86099.3
112417.8,86134.9
112552.5,86199.3
112471.4,86164.2
112182.0,86037.5
111922.3,85964.8
111724.4,85957.6
111528.3,85979.1
111419.1,86036.9
111430.7,86154.3
119607.1,104167.9
119731.9,104206.6
119869.3,104266.8
120003.0,104266.5
120156.4,104339.0
120007.0,104265.9
119693.6,104112.8
119830.4,104197.2
119690.4,104100.4
120042.3,104302.6
120234.7,104375.2
119474.4,104054.4
107633.0,90655.5
107682.5,90658.4
107730.5,90663.4
107726.3,90632.1
107677.4,90585.1
107768.8,90621.8
107681.3,90555.2
107778.5,90604.2
107790.3,90606.9
107754.0,90595.6
107831.8,90645.7
107877.5,90660.8
117041.5,103951.2
116796.9,103839.5
116708.1,103813.6
116807.6,103885.0
116699.0,103874.8
116697.3,103903.5
116725.6,103939.7
116723.1,103933.6
116690.9,103918.3
116687.5,103936.8
116592.8,103881.6
116604.4,103880.0
83587.9,70628.0
83602.6,70577.4
83896.5,70660.2
83883.9,70595.4
83729.1,70514.5
83676.8,70489.7
83323.0,70281.0
83251.9,70271.1
83295.1,70355.5
83075.8,70240.7
82884.4,70169.1
83025.6,70286.6
123243.5,107457.3
123254.7,107458.1
123278.2,107447.8
123224.2,107403.8
123206.5,107398.7
123170.9,107361.7
123193.2,107355.7
123241.2,107356.1
123164.8,107275.5
123118.5,107208.6
123143.4,107204.9
123228.2,107237.8
108781.1,97671.8
109107.2,97791.1
109546.8,97948.8
109752.0,98000.5
109807.5,97990.7
109758.6,97965.3
109612.3,97950.4
109384.6,97931.4
109356.2,97986.9
109542.9,98094.6
109700.8,97880.5
109845.4,97903.9
107305.5,90469.3
107268.1,90425.5
107273.7,90415.2
107288.4,90394.3
107391.4,90473.4
107418.0,90472.4
107411.2,90501.8
107239.5,90379.3
107258.6,90345.8
107264.9,90329.1
107262.9,90306.5
107174.1,90224.2
104146.4,96236.9
104131.0,96221.7
104087.4,96205.4
104119.9,96235.3
104236.7,96288.4
104328.4,96330.2
104393.9,96365.5
104398.3,96379.9
104322.1,96356.8
104360.3,96369.2
104346.5,96354.1
104357.7,96347.2
109030.1,100827.2
109218.3,100928.4
109566.2,101052.0
109835.0,101138.6
109994.7,101190.5
109879.9,101137.3
109792.5,101127.2
109584.6,101051.8
109364.8,100967.2
109277.1,100942.6
109090.1,100906.4
108995.6,100905.5
82530.8,64800.4
82593.1,64821.3
82592.0,64809.0
82565.7,64800.9
82591.3,64803.1
82707.8,64851.4
82788.0,64874.0
82748.5,64875.3
82804.3,64903.8
82857.3,64913.6
82742.1,64858.7
82631.7,64828.8
73306.2,63085.2
73335.8,63076.5
73307.7,63054.1
73339.9,63055.0
73360.2,63055.7
73263.6,63018.7
73221.6,63004.4
73126.7,62975.1
72948.6,62920.8
72853.4,62883.8
72750.1,62853.0
72741.7,62850.7
77133.8,67359.6
77189.7,67374.8
76993.0,67292.2
76672.5,67172.5
76666.9,67180.3
76704.8,67205.0
76626.2,67178.6
76682.7,67201.1
76640.5,67177.5
76716.2,67189.6
76504.2,67088.3
76328.3,66996.9
110337.0,103951.2
109956.9,103765.7
110091.5,103777.3
110017.0,103715.8
110144.0,103749.0
110190.2,103750.1
110106.7,103717.6
110056.7,103660.1
109823.0,103538.5
109687.2,103465.0
109871.0,103519.2
109836.1,103506.9
